time_ns,x,y,theta,omega,lateral_error
100,0.0,0.0,0.0,0.0,0.0
1000100,0.0,0.5,0.1,0.0,0.5
2000100,0.000995004165278026,0.5000998334166469,0.09999999999999999,-3.0,0.5000998334166469
3000100,0.001990008330556052,0.5001996668332938,0.09699999999999999,-0.260083263364682,0.5001996668332938
4000100,0.0029853075181193824,0.5002965147926722,0.09673991673663529,-0.2601581900563471,0.5002965147926722
5000100,0.0039806318605530916,0.5003931038881173,0.09647975854657895,-0.2599330831349359,0.5003931038881173
6000100,0.004975981297747855,0.5004894340385172,0.09621982546344401,-0.25998051094451285,0.5004894340385172
7000100,0.005971355740709834,0.5005855054614177,0.0959598449524995,-0.26002780598689634,0.5005855054614177
8000100,0.006966755126730532,0.5006813181031181,0.0956998171465126,-0.26007499822367713,0.5006813181031181
9000100,0.00796217939305026,0.5007768719100639,0.09543974214828892,-0.2601220604904301,0.5007768719100639
10000100,0.008957628476861127,0.5008721668288167,0.09517962008779848,-0.26016899276203553,0.5008721668288167
11000100,0.009953102315304557,0.5009672028060816,0.09491945109503645,-0.26021579501045394,0.5009672028060816
12000100,0.01094860084547142,0.5010619797887073,0.094659235300026,-0.2602624672104349,0.5010619797887073
13000100,0.01194412400440216,0.5011564977236855,0.09439897283281556,-0.26030900933680806,0.5011564977236855
14000100,0.012939671729086923,0.5012507565581521,0.09413866382347875,-0.2603554213644501,0.5012507565581521
15000100,0.013935243956465684,0.5013447562393861,0.0938783084021143,-0.26040170326834,0.5013447562393861
16000100,0.014930840623428381,0.5014384967148104,0.09361790669884594,-0.260447855023515,0.5014384967148104
17000100,0.015926461666815037,0.5015319779319916,0.09335745884382242,-0.2604938766050924,0.5015319779319916
18000100,0.016922107023415893,0.5016251998386398,0.09309696496721732,-0.26053976798825884,0.5016251998386398
19000100,0.01791777662997154,0.5017181623826096,0.09283642519922905,-0.26058552914829247,0.5017181623826096
20000100,0.01891347042317304,0.5018108655118988,0.09257583967008076,-0.2606311600605409,0.5018108655118988
21000100,0.019909188339662064,0.5019033091746494,0.09231520851002022,-0.2606766607004096,0.5019033091746494
22000100,0.020904930316031016,0.5019954933191476,0.0920545318493198,-0.26072203104338487,0.5019954933191476
23000100,0.021900696288823164,0.5020874178938233,0.09179380981827642,-0.26076727106505554,0.5020874178938233
24000100,0.02289648619453277,0.5021790828472507,0.09153304254721137,-0.2608123807410356,0.5021790828472507
25000100,0.023892299969605218,0.5022704881281482,0.09127223016647033,-0.2608573600470639,0.5022704881281482
26000100,0.024888137550437152,0.5023616336853785,0.09101137280642327,-0.2609022089589379,0.5023616336853785
27000100,0.025883998873376595,0.5024525194679481,0.09075047059746433,-0.2609469274525022,0.5024525194679481
28000100,0.026879883874723082,0.5025431454250084,0.09048952367001183,-0.26099151550370436,0.5025431454250084
29000100,0.027875792490727795,0.502633511505855,0.09022853215450811,-0.2610359730885728,0.502633511505855
30000100,0.028871724657593693,0.5027236176599279,0.08996749618141954,-0.2610803001831943,0.5027236176599279
31000100,0.029867680311475634,0.5028134638368115,0.08970641588123635,-0.2611244967637477,0.5028134638368115
32000100,0.030863659388480513,0.5029030499862348,0.0894452913844726,-0.2611685628064482,0.5029030499862348
33000100,0.031859661824667394,0.5029923760580716,0.08918412282166616,-0.2612124982876361,0.5029923760580716
34000100,0.03285568755604764,0.5030814420023401,0.08892291032337854,-0.2612563031836996,0.5030814420023401
35000100,0.033851736518585036,0.5031702477692033,0.08866165402019484,-0.2612999774711076,0.5031702477692033
36000100,0.034847808648195935,0.503258793308969,0.08840035404272373,-0.26134352112639897,0.503258793308969
37000100,0.03584390388074937,0.5033470785720899,0.08813901052159732,-0.26138693412620473,0.5033470785720899
38000100,0.036840022152067206,0.5034351035091633,0.08787762358747113,-0.26143021644720343,0.5034351035091633
39000100,0.03783616339792424,0.5035228680709316,0.08761619337102393,-0.2614733680661659,0.5035228680709316
40000100,0.03883232755404838,0.5036103722082822,0.08735472000295777,-0.26151638895994417,0.5036103722082822
41000100,0.03982851455612074,0.5036976158722475,0.08709320361399782,-0.2615592791054601,0.5036976158722475
42000100,0.04082472433977578,0.5037845990140049,0.08683164433489236,-0.26160203847970587,0.5037845990140049
43000100,0.04182095684060143,0.503871321584877,0.08657004229641266,-0.2616446670597435,0.503871321584877
44000100,0.042817211994139244,0.5039577835363317,0.08630839762935293,-0.26168716482273857,0.5039577835363317
45000100,0.04381348973588452,0.5040439848199818,0.08604671046453019,-0.2617295317458936,0.5040439848199818
46000100,0.044809790001286424,0.5041299253875857,0.08578498093278429,-0.2617717678065033,0.5041299253875857
47000100,0.04580611272574814,0.5042156051910471,0.08552320916497778,-0.261813872981955,0.5042156051910471
48000100,0.04680245784462698,0.5043010241824151,0.08526139529199582,-0.26185584724969513,0.5043010241824151
49000100,0.04779882529323453,0.504386182313884,0.08499953944474611,-0.26189769058724044,0.504386182313884
50000100,0.04879521500683679,0.5044710795377939,0.08473764175415888,-0.2619394029721891,0.5044710795377939
51000100,0.04979162692065429,0.5045557158066303,0.08447570235118669,-0.2619809843822207,0.5045557158066303
52000100,0.05078806096986223,0.5046400910730243,0.08421372136680447,-0.26202243479507425,0.5046400910730243
53000100,0.05178451708959062,0.5047242052897527,0.08395169893200939,-0.2620637541885924,0.5047242052897527
54000100,0.05278099521492441,0.504808058409738,0.0836896351778208,-0.26210494254065486,0.504808058409738
55000100,0.053777495280903594,0.5048916503860483,0.08342753023528014,-0.2621459998292565,0.5048916503860483
56000100,0.0547740172225234,0.5049749811718979,0.08316538423545089,-0.2621869260324403,0.5049749811718979
57000100,0.055770560974734366,0.5050580507206464,0.08290319730941845,-0.26222772112834214,0.5050580507206464
58000100,0.056767126472442524,0.5051408589857996,0.0826409695882901,-0.2622683850951462,0.5051408589857996
59000100,0.05776371365050949,0.5052234059210093,0.08237870120319496,-0.2623089179111517,0.5052234059210093
60000100,0.05876032244375262,0.5053056914800733,0.0821163922852838,-0.2623493195546952,0.5053056914800733
61000100,0.05975695278694515,0.5053877156169353,0.08185404296572911,-0.2623895900042285,0.5053877156169353
62000100,0.060753604614816305,0.5054694782856851,0.08159165337572488,-0.26242972923824065,0.5054694782856851
63000100,0.06175027786205145,0.5055509794405588,0.08132922364648665,-0.2624697372353137,0.5055509794405588
64000100,0.06274697246329224,0.5056322190359387,0.08106675390925133,-0.2625096139741116,0.5056322190359387
65000100,0.0637436883531367,0.5057131970263531,0.0808042442952772,-0.26254935943336916,0.5057131970263531
66000100,0.06474042546613942,0.5057939133664769,0.08054169493584383,-0.2625889735918809,0.5057939133664769
67000100,0.06573718373681169,0.5058743680111313,0.08027910596225195,-0.26262845642855664,0.5058743680111313
68000100,0.06673396309962154,0.5059545609152836,0.08001647750582337,-0.2626678079223327,0.5059545609152836
69000100,0.06773076348899401,0.5060344920340478,0.07975380969790104,-0.2627070280522496,0.5060344920340478
70000100,0.06872758483931117,0.5061141613226845,0.07949110266984877,-0.26274611679743004,0.5061141613226845
71000100,0.06972442708491233,0.5061935687366005,0.07922835655305135,-0.2627850741370566,0.5061935687366005
72000100,0.07072129016009414,0.5062727142313495,0.0789655714789143,-0.2628239000503828,0.5062727142313495
73000100,0.07171817399911073,0.5063515977626316,0.07870274757886392,-0.2628625945167667,0.5063515977626316
74000100,0.07271507853617386,0.5064302192862938,0.07843988498434715,-0.2629011575156151,0.5064302192862938
75000100,0.073712003705453,0.5065085787583297,0.07817698382683153,-0.26293958902641723,0.5065085787583297
76000100,0.07470894944107556,0.5065866761348796,0.07791404423780511,-0.2629778890287332,0.5065866761348796
77000100,0.07570591567712695,0.5066645113722309,0.07765106634877637,-0.2630160575022279,0.5066645113722309
78000100,0.07670290234765073,0.5067420844268176,0.07738805029127414,-0.26305409442660405,0.5067420844268176
79000100,0.07769990938664877,0.5068193952552206,0.07712499619684754,-0.2630919997816577,0.5068193952552206
80000100,0.07869693672808135,0.506896443814168,0.07686190419706589,-0.26312977354725636,0.506896443814168
81000100,0.07969398430586734,0.5069732300605349,0.07659877442351863,-0.26316741570336105,0.5069732300605349
82000100,0.08069105205388429,0.5070497539513431,0.07633560700781528,-0.2632049262299929,0.5070497539513431
83000100,0.08168813990596857,0.5071260154437619,0.07607240208158528,-0.2632423051072335,0.5071260154437619
84000100,0.08268524779591556,0.5072020144951076,0.07580915977647804,-0.263279552315269,0.5072020144951076
85000100,0.08368237565747974,0.5072777510628438,0.07554588022416277,-0.26331666783435703,0.5072777510628438
86000100,0.08467952342437482,0.507353225104581,0.07528256355632841,-0.2633536516448268,0.507353225104581
87000100,0.0856766910302739,0.5074284365780776,0.07501920990468358,-0.2633905037270567,0.5074284365780776
88000100,0.08667387840880958,0.5075033854412386,0.0747558194009565,-0.2634272240615633,0.5075033854412386
89000100,0.08767108549357414,0.507578071652117,0.07449239217689495,-0.2634638126288682,0.507578071652117
90000100,0.08866831221811963,0.5076524951689129,0.07422892836426608,-0.26350026940961985,0.5076524951689129
91000100,0.08966555851595805,0.5077266559499739,0.07396542809485646,-0.2635365943845276,0.5077266559499739
92000100,0.09066282432056143,0.5078005539537952,0.07370189150047193,-0.2635727875343721,0.5078005539537952
93000100,0.09166010956536201,0.5078741891390196,0.07343831871293756,-0.26360884884000585,0.5078741891390196
94000100,0.0926574141837524,0.5079475614644373,0.07317470986409755,-0.26364477828238647,0.5079475614644373
95000100,0.09365473810908563,0.5080206708889864,0.07291106508581516,-0.26368057584249865,0.5080206708889864
96000100,0.09465208127467539,0.5080935173717525,0.07264738450997266,-0.26371624150145456,0.5080935173717525
97000100,0.0956494436137961,0.508166100871969,0.0723836682684712,-0.26375177524040483,0.508166100871969
98000100,0.09664682505968304,0.5082384213490171,0.0721199164932308,-0.2637871770406052,0.5082384213490171
99000100,0.09764422554553255,0.5083104787624259,0.07185612931619019,-0.26382244688334994,0.5083104787624259
100000100,0.09864164500450212,0.5083822730718721,0.07159230686930684,-0.2638575847500608,0.5083822730718721
101000100,0.09963908336971052,0.5084538042371807,0.07132844928455678,-0.263892590622187,0.5084538042371807
102000100,0.10063654057423797,0.5085250722183242,0.07106455669393459,-0.2639274644812829,0.5085250722183242
103000100,0.10163401655112626,0.5085960769754235,0.07080062922945331,-0.2639622063089639,0.5085960769754235
104000100,0.10263151123337891,0.5086668184687475,0.07053666702314434,-0.26399681608693953,0.5086668184687475
105000100,0.10362902455396125,0.5087372966587129,0.07027267020705741,-0.2640312937969914,0.5087372966587129
106000100,0.10462655644580063,0.5088075115058848,0.07000863891326042,-0.264065639420951,0.5088075115058848
107000100,0.1056241068417865,0.5088774629709762,0.06974457327383947,-0.26409985294075505,0.5088774629709762
108000100,0.10662167567477059,0.5089471510148488,0.06948047342089872,-0.2641339343384126,0.5089471510148488
109000100,0.10761926287756701,0.5090165755985119,0.06921633948656032,-0.2641678835960047,0.5090165755985119
110000100,0.10861686838295245,0.5090857366831236,0.06895217160296431,-0.2642017006956735,0.5090857366831236
111000100,0.10961449212366624,0.5091546342299902,0.06868796990226864,-0.2642353856196779,0.5091546342299902
112000100,0.11061213403241053,0.5092232682005663,0.06842373451664896,-0.2642689383503045,0.5092232682005663
113000100,0.11160979404185045,0.509291638556455,0.06815946557829866,-0.26430235886995657,0.509291638556455
114000100,0.1126074720846142,0.5093597452594077,0.0678951632194287,-0.2643356471610875,0.5093597452594077
115000100,0.11360516809329323,0.5094275882713246,0.06763082757226761,-0.26436880320623407,0.5094275882713246
116000100,0.11460288200044232,0.5094951675542543,0.06736645876906139,-0.2644018269880165,0.5094951675542543
117000100,0.11560061373857981,0.5095624830703939,0.06710205694207337,-0.26443471848913863,0.5095624830703939
118000100,0.11659836324018767,0.5096295347820892,0.06683762222358423,-0.2644674776923543,0.5096295347820892
119000100,0.11759613043771165,0.5096963226518346,0.06657315474589189,-0.26450010458051215,0.5096963226518346
120000100,0.11859391526356144,0.5097628466422734,0.06630865464131137,-0.2645325991365331,0.5097628466422734
121000100,0.1195917176501108,0.5098291067161975,0.06604412204217484,-0.26456496134342183,0.5098291067161975
122000100,0.12058953752969766,0.5098951028365476,0.06577955708083143,-0.26459719118424435,0.5098951028365476
123000100,0.12158737483462434,0.5099608349664132,0.06551495988964719,-0.26462928864216145,0.5099608349664132
124000100,0.12258522949715761,0.5100263030690327,0.06525033060100502,-0.2646612537003953,0.5100263030690327
125000100,0.1235831014495289,0.5100915071077935,0.06498566934730463,-0.2646930863422519,0.5100915071077935
126000100,0.12458099062393438,0.5101564470462318,0.06472097626096238,-0.26472478655110976,0.5101564470462318
127000100,0.1255788969525351,0.5102211228480328,0.06445625147441127,-0.26475635431043115,0.5102211228480328
128000100,0.1265768203674572,0.5102855344770308,0.06419149512010083,-0.26478778960375116,0.5102855344770308
129000100,0.12757476080079203,0.5103496818972093,0.06392670733049709,-0.26481909241467744,0.5103496818972093
130000100,0.12857271818459615,0.5104135650727005,0.06366188823808241,-0.2648502627269015,0.5104135650727005
131000100,0.12957069245089167,0.5104771839677862,0.06339703797535551,-0.26488130052417647,0.5104771839677862
132000100,0.13056868353166629,0.510540538546897,0.06313215667483134,-0.26491220579036173,0.510540538546897
133000100,0.13156669135887344,0.510603628774613,0.06286724446904098,-0.264942978509356,0.510603628774613
134000100,0.13256471586443247,0.5106664546156634,0.06260230149053161,-0.26497361866517527,0.5106664546156634
135000100,0.13356275698022868,0.5107290160349267,0.06233732787186644,-0.26500412624187525,0.5107290160349267
136000100,0.13456081463811362,0.5107913129974309,0.06207232374562456,-0.26503450122359534,0.5107913129974309
137000100,0.13555888876990507,0.510853345468353,0.061807289244400966,-0.2650647435945815,0.510853345468353
138000100,0.13655697930738733,0.51091511341302,0.06154222450080638,-0.2650948533391191,0.51091511341302
139000100,0.13755508618231124,0.5109766167969078,0.06127712964746726,-0.2651248304415998,0.5109766167969078
140000100,0.13855320932639437,0.5110378555856419,0.06101200481702566,-0.26515467488646627,0.5110378555856419
141000100,0.13955134867132116,0.5110988297449974,0.06074685014213919,-0.26518438665824495,0.5110988297449974
142000100,0.14054950414874307,0.5111595392408992,0.060481665755480946,-0.26521396574155787,0.5111595392408992
143000100,0.1415476756902787,0.5112199840394214,0.06021645178973939,-0.2652434121210889,0.5112199840394214
144000100,0.14254586322751395,0.5112801641067878,0.059951208377618304,-0.26527272578159483,0.5112801641067878
145000100,0.14354406669200215,0.5113400794093721,0.05968593565183671,-0.26530190670790593,0.5113400794093721
146000100,0.1445422860152642,0.5113997299136974,0.05942063374512881,-0.2653309548849587,0.5113997299136974
147000100,0.1455405211287887,0.5114591155864369,0.05915530279024385,-0.2653598702977184,0.5114591155864369
148000100,0.14653877196403214,0.5115182363944132,0.058889942919946134,-0.2653886529312791,0.5115182363944132
149000100,0.147537038452419,0.5115770923045989,0.05862455426701485,-0.2654173027707748,0.5115770923045989
150000100,0.14853532052534185,0.5116356832841165,0.05835913696424407,-0.26544581980142373,0.5116356832841165
151000100,0.14953361811416163,0.5116940093002382,0.05809369114444265,-0.26547420400852856,0.5116940093002382
152000100,0.15053193115020763,0.5117520703203863,0.05782821694043412,-0.2655024553774765,0.5117520703203863
153000100,0.15153025956477773,0.5118098663121329,0.05756271448505664,-0.26553057389369455,0.5118098663121329
154000100,0.1525286032891385,0.5118673972432002,0.057297183911162945,-0.2655585595427387,0.5118673972432002
155000100,0.1535269622545254,0.5119246630814605,0.05703162535162021,-0.26558641231020513,0.5119246630814605
156000100,0.1545253363921428,0.5119816637949358,0.05676603893931,-0.2656141321817854,0.5119816637949358
157000100,0.1555237256331643,0.5120383993517986,0.05650042480712822,-0.2656417191432225,0.5120383993517986
158000100,0.1565221299087327,0.5120948697203713,0.056234783087985,-0.2656691731803659,0.5120948697203713
159000100,0.15752054914996025,0.5121510748691266,0.05596911391480463,-0.2656964942791278,0.5121510748691266
160000100,0.15851898328792877,0.5122070147666872,0.055703417420525494,-0.2657236824255047,0.5122070147666872
161000100,0.15951743225368972,0.5122626893818262,0.05543769373809999,-0.2657507376055558,0.5122626893818262
162000100,0.1605158959782645,0.5123180986834668,0.05517194300049443,-0.26577765980543583,0.5123180986834668
163000100,0.16151437439264438,0.5123732426406826,0.054906165340689,-0.26580444901135103,0.5123732426406826
164000100,0.16251286742779086,0.5124281212226977,0.05464036089167765,-0.2658311052096144,0.5124281212226977
165000100,0.16351137501463567,0.5124827343988861,0.05437452978646803,-0.2658576283866016,0.5124827343988861
166000100,0.16450989708408092,0.5125370821387727,0.054108672158081426,-0.265884018528762,0.5125370821387727
167000100,0.16550843356699932,0.5125911644120325,0.053842788139552664,-0.2659102756226184,0.5125911644120325
168000100,0.16650698439423428,0.512644981188491,0.053576877863930054,-0.26593639965478966,0.512644981188491
169000100,0.16750554949660001,0.5126985324381244,0.053310941464275265,-0.26596239061195726,0.5126985324381244
170000100,0.16850412880488178,0.512751818131059,0.05304497907366332,-0.2659882484808765,0.512751818131059
171000100,0.1695027222498359,0.5128048382375721,0.05277899082518244,-0.2660139732483761,0.5128048382375721
172000100,0.17050132976218998,0.5128575927280914,0.05251297685193407,-0.2660395649013924,0.5128575927280914
173000100,0.17149995127264311,0.5129100815731952,0.052246937287032676,-0.2660650234269129,0.5129100815731952
174000100,0.17249858671186583,0.5129623047436125,0.05198087226360576,-0.2660903488119881,0.5129623047436125
175000100,0.17349723601050046,0.513014262210223,0.05171478191479377,-0.2661155410437867,0.513014262210223
176000100,0.1744958990991611,0.513065953944057,0.051448666373749986,-0.2661406001095179,0.513065953944057
177000100,0.17549457590843393,0.5131173799162956,0.05118252577364047,-0.26616552599648713,0.5131173799162956
178000100,0.17649326636887713,0.5131685400982707,0.05091636024764398,-0.2661903186920625,0.5131685400982707
179000100,0.17749197041102127,0.5132194344614651,0.05065016992895191,-0.2662149781837085,0.5132194344614651
180000100,0.17849068796536927,0.5132700629775123,0.050383954950768195,-0.2662395044589523,0.5132700629775123
181000100,0.17948941896239665,0.5133204256181967,0.05011771544630923,-0.26626389750540624,0.5133204256181967
182000100,0.1804881633325516,0.5133705223554534,0.04985145154880383,-0.2662881573107457,0.5133705223554534
183000100,0.1814869210062552,0.5134203531613689,0.04958516339149308,-0.2663122838627308,0.5134203531613689
184000100,0.18248569191390146,0.5134699180081803,0.04931885110763035,-0.26633627714921854,0.5134699180081803
