time_ns,x,y,theta,omega,lateral_error
100,0.0,0.0,0.0,0.0,0.0
1000100,0.0,0.5,0.1,0.0,0.5
2000100,0.000995004165278026,0.500045153441262,0.09999999999999999,-3.0,0.500045153441262
3000100,0.001990008330556052,0.5001015594954885,0.09699999999999999,-1.0227670320288638,0.5001015594954885
4000100,0.0029853075181193824,0.5001732030995317,0.09597723296797113,-1.0285561607755311,0.5001732030995317
5000100,0.003980705237997908,0.5001958733122468,0.0949486768071956,-1.0363682402122742,0.5001958733122468
6000100,0.004976200997814809,0.5002946062451616,0.09391230856698331,-1.0119769045609635,0.5002946062451616
7000100,0.005971794477010427,0.5005238428966996,0.09290033166242236,-1.0502557599873061,0.5005238428966996
8000100,0.0069674823438495865,0.5007607130960626,0.09185007590243505,-1.1160161449862263,0.5007607130960626
9000100,0.007963267090354938,0.5009958771620321,0.09073405975744882,-1.120356735368797,0.5009958771620321
10000100,0.008959153578815405,0.5011442828015948,0.08961370302208002,-1.12002409639167,0.5011442828015948
11000100,0.00995514095732777,0.501098252936532,0.08849367892568835,-1.0769918088957218,0.501098252936532
12000100,0.010951227946331606,0.5012832723532594,0.08741668711679262,-0.9797321066780837,0.5012832723532594
13000100,0.011947409540253272,0.5014407784574382,0.08643695501011454,-1.0956769147339223,0.5014407784574382
14000100,0.012943676191954594,0.5016059451275686,0.08534127809538063,-1.0822854147457814,0.5016059451275686
15000100,0.013940036834712838,0.5018131988351531,0.08425899268063484,-1.0864961916564024,0.5018131988351531
16000100,0.014936489145459014,0.5018848264848358,0.08317249648897844,-1.1080043991184592,0.5018848264848358
17000100,0.01593303230683309,0.5019385988151427,0.08206449208985998,-1.0403848139496037,0.5019385988151427
18000100,0.01692966690575207,0.5019779877709676,0.08102410727591038,-1.0316148927821915,0.5019779877709676
19000100,0.01792638624812882,0.5021443051295471,0.07999249238312818,-1.0245521812516147,0.5021443051295471
20000100,0.01892318855437225,0.502265953621875,0.07896794020187657,-1.0883992317766034,0.502265953621875
21000100,0.019920072206532812,0.5025019799508131,0.07787954097009997,-1.0663583222307957,0.5025019799508131
22000100,0.0209170411275608,0.5027244096364515,0.07681318264786917,-1.124069543391807,0.5027244096364515
23000100,0.02191409244530827,0.5029438610094964,0.07568911310447736,-1.1177663535541438,0.5029438610094964
24000100,0.022911229391610423,0.5028710400893902,0.07457134675092321,-1.1167663943896156,0.5028710400893902
25000100,0.023908450236970587,0.5029117667664077,0.0734545803565336,-0.9705348930778639,0.5029117667664077
26000100,0.024905753662074502,0.5030020269620683,0.07248404546345573,-1.0274404361704133,0.5030020269620683
27000100,0.025903127843610235,0.50314845146495,0.07145660502728532,-1.05243801608599,0.50314845146495
28000100,0.02690057590654559,0.5031620516502557,0.07040416701119932,-1.0808633335474536,0.5031620516502557
29000100,0.027898098556732615,0.5030539959690885,0.06932330367765187,-1.0145286913352316,0.5030539959690885
30000100,0.02889569665865162,0.5032267859042001,0.06830877498631664,-0.9535349521360204,0.5032267859042001
31000100,0.02989336452132314,0.5032491231656602,0.06735524003418063,-1.0943536628242516,0.5032491231656602
32000100,0.030891097014592774,0.5033588224207642,0.06626088637135638,-1.0192223254337152,0.5033588224207642
33000100,0.031888902565132826,0.5034596610753242,0.06524166404592266,-1.0631730566481694,0.5034596610753242
34000100,0.032886775082561034,0.5035452910062076,0.06417849098927449,-1.058994779651368,0.5035452910062076
35000100,0.0338847163499929,0.5034238038608996,0.06311949620962312,-1.0516120322039038,0.5034238038608996
36000100,0.0348827249758717,0.5036380653442247,0.062067884177419215,-0.9478608621979911,0.5036380653442247
37000100,0.035880799383050714,0.5036622613248043,0.06112002331522123,-1.1162140632877608,0.5036622613248043
38000100,0.03687893213581725,0.5036927263497164,0.060003809251933465,-1.0212800701022602,0.5036927263497164
39000100,0.037877132447327204,0.5039072413908873,0.05898252918183121,-1.0245258915909898,0.5039072413908873
40000100,0.03887539348218667,0.5038704043216113,0.05795800329024022,-1.1170303205268524,0.5038704043216113
41000100,0.039873714387217804,0.5038993711682884,0.05684097296971337,-0.9913309782053321,0.5038993711682884
42000100,0.04087209937401232,0.5041112466913543,0.05584964199150803,-1.0243412598123087,0.5041112466913543
43000100,0.041870540188102365,0.5040984419691716,0.05482530073169572,-1.1162697601775173,0.5040984419691716
44000100,0.042869037657719294,0.504049166031728,0.053709030971518204,-1.0039544379530607,0.504049166031728
45000100,0.043867595674401315,0.5041044063642829,0.05270507653356514,-0.9856706833642976,0.5041044063642829
46000100,0.044866207083338355,0.5040255237648049,0.05171940585020084,-1.0380897094693051,0.5040255237648049
47000100,0.04586486993296909,0.5042620641724229,0.05068131614073154,-0.9709208808062986,0.5042620641724229
48000100,0.046863585909946194,0.5044669775709765,0.04971039525992525,-1.1291558913759376,0.5044669775709765
49000100,0.04786235060266224,0.5043743093000789,0.048581239368549314,-1.1138026603385769,0.5043743093000789
50000100,0.04886117076632826,0.5043968018828888,0.04746743670821074,-0.9648769265021355,0.5043968018828888
51000100,0.04986004439906851,0.5043167115644024,0.046502559781708606,-1.0225527782017199,0.5043167115644024
52000100,0.050858963349869446,0.5044486981867194,0.04548000700350688,-0.9711515785877092,0.5044486981867194
53000100,0.05185792931260559,0.5044671651590532,0.04450885542491917,-1.07750446710391,0.5044671651590532
54000100,0.052856938957010526,0.5045992635307055,0.04343135095781526,-1.0208320227734455,0.5045992635307055
55000100,0.05385599596413072,0.5048189461390479,0.042410518935041816,-1.077962379102366,0.5048189461390479
56000100,0.05485509677286236,0.5047915340088197,0.04133255655593945,-1.1222443445587076,0.5047915340088197
57000100,0.0558542427043465,0.5049362437226372,0.04021031221138074,-0.9986926301663814,0.5049362437226372
58000100,0.056853434378664316,0.5048700972877866,0.03921161958121436,-1.0850934652412347,0.5048700972877866
59000100,0.05785266570160682,0.5048724903754698,0.03812652611597312,-0.9795835850472048,0.5048724903754698
60000100,0.0588519389736493,0.5051354640142665,0.03714694253092592,-1.0139086197384672,0.5051354640142665
61000100,0.05985124910531392,0.5051785518201276,0.03613303391118745,-1.1447753561192389,0.5051785518201276
62000100,0.06085059637826523,0.5051327447824985,0.03498825855506821,-1.0349691331183786,0.5051327447824985
63000100,0.06184998435158651,0.5051323514490316,0.03395328942194983,-0.9904806105724568,0.5051323514490316
64000100,0.06284940799402841,0.505200062835085,0.03296280881137737,-1.0132371892217793,0.505200062835085
65000100,0.06384886476983526,0.5051462339942145,0.031949571622155594,-1.0474754917603424,0.5051462339942145
66000100,0.06484835442568627,0.5049989378469565,0.03090209613039525,-0.986648235240051,0.5049989378469565
67000100,0.06584787699390866,0.5050708205849554,0.029915447895155198,-0.9396704896455217,0.5050708205849554
68000100,0.0668474295602674,0.5051487931811387,0.028975777405509676,-1.0494542048320887,0.5051487931811387
69000100,0.06784700979180015,0.5053014437317966,0.02792632320067759,-1.0527055939959173,0.5053014437317966
70000100,0.0688466198773779,0.5053809579775372,0.026873617606681673,-1.0904004024789509,0.5053809579775372
71000100,0.06984625880344743,0.505387477260984,0.025783217204202725,-1.0540418166075585,0.505387477260984
72000100,0.07084592643471585,0.5055158963668333,0.024729175387595167,-1.0176079127752538,0.5055158963668333
73000100,0.07184562068424001,0.5056636844457804,0.023711567474819912,-1.078865213777847,0.5056636844457804
74000100,0.07284533957819504,0.5055991853383628,0.022632702261042064,-1.0888958428531077,0.5055991853383628
75000100,0.07384508346952191,0.5054754796395888,0.021543806418188958,-0.9826738113744669,0.5054754796395888
76000100,0.07484485141070019,0.5055883219810052,0.02056113260681449,-0.9528736518466896,0.5055883219810052
77000100,0.07584464003805996,0.505680532093884,0.0196082589549678,-1.0714239154568976,0.505680532093884
78000100,0.07684444780230976,0.5057164927322894,0.018536835039510903,-1.0613427894670378,0.5057164927322894
79000100,0.07784427600010267,0.5057152914010398,0.017475492250043866,-1.0333405451564428,0.5057152914010398
80000100,0.07884412330757397,0.5057678384615035,0.016442151704887425,-1.0148077291955961,0.5057678384615035
81000100,0.07984398813844285,0.5058402075717375,0.015427343975691829,-1.041837595957044,0.5058402075717375
82000100,0.08084386913933198,0.5058062777514784,0.014385506379734785,-1.0519439430833923,0.5058062777514784
83000100,0.08184376566971945,0.5058619437836841,0.013333562436651394,-0.9987771988240555,0.5058619437836841
84000100,0.08284367677909277,0.505771627423661,0.01233478523782734,-1.0437370433153104,0.505771627423661
85000100,0.08384360070659386,0.5057937019740301,0.01129104819451203,-0.9706157916435818,0.5057937019740301
86000100,0.0848435369633864,0.505672833755305,0.010320432402868448,-1.0269059753106013,0.505672833755305
87000100,0.0858434837081966,0.5056565909042227,0.009293526427557847,-0.9552434216094765,0.5056565909042227
88000100,0.08684344052369068,0.5056909146687026,0.00833828300594837,-1.0075741853877338,0.5056909146687026
89000100,0.08784340576041036,0.5056975472830901,0.007330708820560637,-1.0329767097893372,0.5056975472830901
90000100,0.08884337889088478,0.5059508821655163,0.0062977321107713,-1.0191949697265952,0.5059508821655163
91000100,0.08984335906023545,0.5058557315662364,0.005278537141044705,-1.143103368599009,0.5058557315662364
92000100,0.09084334512879062,0.5058614438664144,0.004135433772445696,-0.9687209121205693,0.5058614438664144
93000100,0.09184333657789656,0.5056836189734191,0.0031667128603251266,-1.01921437259425,0.5056836189734191
94000100,0.09284333156386558,0.5057734401861128,0.002147498487730877,-0.9271406945834957,0.5057734401861128
95000100,0.09384332925799159,0.5057016516825117,0.0012203577931473811,-1.0611939671974413,0.5057016516825117
96000100,0.09484332851335511,0.5056836368985064,0.00015916382594993985,-0.9802961022079753,0.5056836368985064
97000100,0.09584332850068855,0.5056151846870048,-0.0008211322762580355,-1.007197500801558,0.5056151846870048
98000100,0.09684332816355946,0.5056273578591054,-0.0018283297770595934,-0.9818924441489139,0.5056273578591054
99000100,0.09784332649216504,0.5056786496576045,-0.0028102222212085075,-1.0222800450299485,0.5056786496576045
100000100,0.09884332254349318,0.5057418902578023,-0.003832502266238456,-1.041992509691159,0.5057418902578023
101000100,0.09984331519946536,0.5057462061875897,-0.004874494775929616,-1.0481439659299538,0.5057462061875897
102000100,0.10084330331913922,0.5056541886729103,-0.0059226387418595695,-1.0187408372049704,0.5056541886729103
103000100,0.10184328578036565,0.505631487226164,-0.00694137957906454,-0.9704406453610785,0.505631487226164
104000100,0.10284326168908715,0.5056002663687482,-0.007911820224425617,-1.0051038395828256,0.5056002663687482
105000100,0.10384323039080079,0.5056902931436091,-0.008916924064008442,-1.0008322525598894,0.5056902931436091
106000100,0.10484319063529683,0.5055664457077691,-0.009917756316568332,-1.0616866912772867,0.5055664457077691
107000100,0.10584314145475478,0.5056231194426393,-0.010979443007845618,-0.9545524476996976,0.5056231194426393
108000100,0.10684308118127589,0.5055998076411313,-0.011933995455545318,-1.0449769428364886,0.5055998076411313
109000100,0.10784300997199726,0.5054036545969947,-0.012978972398381807,-1.0049881110251802,0.5054036545969947
110000100,0.10884292574631736,0.5053814976798765,-0.013983960509406987,-0.9182257239880016,0.5053814976798765
111000100,0.10984282797233492,0.5054551166660186,-0.014902186233394989,-1.0052300118127915,0.5054551166660186
112000100,0.11084271693681254,0.5054747696714871,-0.01590741624520778,-1.0533157469268746,0.5054747696714871
113000100,0.11184259041653473,0.5053726497728142,-0.016960731992134652,-1.0264226100779574,0.5053726497728142
114000100,0.11284244658676784,0.5051811570711465,-0.017987154602212608,-0.9653824554748924,0.5051811570711465
115000100,0.11384228482226398,0.5052811861253853,-0.018952537057687496,-0.9203635866899129,0.5052811861253853
116000100,0.11484210522830944,0.5053888649857057,-0.019872900644377408,-1.066375050870208,0.5053888649857057
117000100,0.11584190776871815,0.5054117522705949,-0.020939275695247617,-1.0704658505181417,0.5054117522705949
118000100,0.11684168855009477,0.5052786640366562,-0.02200974154576576,-1.0281663785475592,0.5052786640366562
119000100,0.11784144634551112,0.5052996372062003,-0.023037907924313317,-0.9499629705321635,0.5052996372062003
120000100,0.11884118098464726,0.5053706731649408,-0.02398787089484548,-1.0270861485763374,0.5053706731649408
121000100,0.11984089328946804,0.5053792001966301,-0.02501495704342182,-1.052310152159331,0.5053792001966301
122000100,0.12084058043174478,0.5054752337798166,-0.02606726719558115,-1.021123280617142,0.5054752337798166
123000100,0.1218402406997733,0.5052364042435245,-0.027088390476198293,-1.0651191710555188,0.5052364042435245
124000100,0.12283987383175822,0.5053480932168561,-0.028153509647253813,-0.8972604758839973,0.5053480932168561
125000100,0.12383947754788174,0.5052633986156289,-0.029050770123137806,-1.0727936434519147,0.5052633986156289
126000100,0.12483905560393549,0.5051809969669716,-0.03012356376658972,-0.9744829933098327,0.5051809969669716
127000100,0.12583860192369695,0.505145075935587,-0.031098046759899554,-0.9755151843972338,0.505145075935587
128000100,0.12683811841840872,0.5049233755640775,-0.03207356194429679,-0.9987341654783768,0.5049233755640775
129000100,0.1278376041058131,0.5048805177393684,-0.03307229610977516,-0.9054515870104793,0.5048805177393684
130000100,0.12883705726727412,0.5049108684237071,-0.03397774769678564,-0.9948376328130049,0.5049108684237071
131000100,0.12983648007913776,0.5048834143910845,-0.03497258532959864,-1.0315530797924777,0.5048834143910845
132000100,0.13083586860060326,0.5046874922653136,-0.036004138409391116,-1.0026463015879847,0.5046874922653136
133000100,0.1318352205216251,0.5046239219211628,-0.0370067847109791,-0.9180708795115198,0.5046239219211628
134000100,0.13283453584871155,0.504406077735182,-0.03792485559049062,-0.9841700920254486,0.504406077735182
135000100,0.13383381678756712,0.5042965657003978,-0.03890902568251607,-0.9066479233462719,0.5042965657003978
136000100,0.13483305992691963,0.5044018275804358,-0.03981567360586234,-0.9606454045316013,0.5044018275804358
137000100,0.13583226738769583,0.504557869686801,-0.04077631901039394,-1.0682933258855172,0.504557869686801
138000100,0.13683143614878504,0.5045900212723522,-0.04184461233627946,-1.09404597904882,0.5045900212723522
139000100,0.1378305607907327,0.5046361235946349,-0.04293865831532828,-1.0322154808150126,0.5046361235946349
140000100,0.13882963906817397,0.5045828981007888,-0.0439708737961433,-1.03933351743774,0.5045828981007888
141000100,0.1398286725050503,0.5045857133931464,-0.04501020731358105,-0.9896136166754232,0.5045857133931464
142000100,0.140827659716672,0.5046606581367654,-0.04599982093025647,-1.0176900989333242,0.5046606581367654
143000100,0.1418266019114538,0.5045364122284931,-0.047017511029189794,-1.0539551801171003,0.5045364122284931
144000100,0.14282549679189033,0.5045548951963679,-0.048071466209306885,-0.9541618159961114,0.5045548951963679
145000100,0.14382434158144564,0.5046346915530251,-0.049025628025303,-1.0256136754949206,0.5046346915530251
146000100,0.14482314006602767,0.5045656497764693,-0.05005124170079791,-1.0564804260686194,0.5045656497764693
147000100,0.1458218877640938,0.5044279226923741,-0.051107722126866525,-0.981973732473995,0.5044279226923741
148000100,0.14682058204871107,0.5042690594138198,-0.05208969585934052,-0.9474060673283484,0.5042690594138198
149000100,0.14781922568723407,0.5042487604091985,-0.05303710192666886,-0.9365706704476349,0.5042487604091985
150000100,0.1488178195498044,0.5043161901439122,-0.053973672597116495,-1.0058626342809307,0.5043161901439122
151000100,0.1498163633247068,0.5043881047665657,-0.05497953523139742,-1.0499122950368402,0.5043881047665657
152000100,0.1508148523307302,0.5043259150035538,-0.05602944752643426,-1.0523490070625814,0.5043259150035538
153000100,0.15181328309182543,0.5041881774385076,-0.05708179653349684,-0.985222867295352,0.5041881774385076
154000100,0.15281165436839314,0.5042665749621105,-0.05806701940079219,-0.9472239099658348,0.5042665749621105
155000100,0.15380996895267268,0.5041313051996362,-0.059014243310758024,-1.0554986759950562,0.5041313051996362
156000100,0.154808228117535,0.5040585228059924,-0.06006974198675308,-0.9484449065620879,0.5040585228059924
157000100,0.15580642447303367,0.5040475985545085,-0.06101818689331517,-0.9795934320422861,0.5040475985545085
158000100,0.15680456344099447,0.5039438134583413,-0.06199778032535745,-1.010551059379162,0.5039438134583413
159000100,0.15780264219412546,0.503976999099483,-0.06300833138473662,-0.96396346122647,0.503976999099483
160000100,0.15880065782584726,0.5040003812333628,-0.06397229484596309,-1.0325655988631661,0.5040003812333628
161000100,0.15979861229633915,0.5038641831244987,-0.06500486044482626,-1.0277610095380565,0.5038641831244987
162000100,0.16079650022429218,0.5038085586054021,-0.06603262145436431,-0.9477488783667043,0.5038085586054021
163000100,0.16179432086280723,0.5035844150538477,-0.06698037033273102,-0.9879748050681421,0.5035844150538477
164000100,0.16279207851632338,0.5035926977978065,-0.06796834513779916,-0.9033173601776145,0.5035926977978065
165000100,0.163789769557449,0.5034730062304681,-0.06887166249797677,-1.0195974326919284,0.5034730062304681
166000100,0.16478739884180946,0.5032281702253308,-0.0698912599306687,-0.955421241209282,0.5032281702253308
167000100,0.16578495744175506,0.5032205072043165,-0.07084668117187799,-0.8924096731165929,0.5032205072043165
168000100,0.1667824488651668,0.5031939907094771,-0.07173909084499458,-1.0110311611867635,0.5031939907094771
169000100,0.16777987672000125,0.5031421268643225,-0.07275012200618135,-1.0016017106835902,0.5031421268643225
170000100,0.16877723159681132,0.5031967311932316,-0.07375172371686493,-0.9888746220483522,0.5031967311932316
171000100,0.16977451317096917,0.503192999707805,-0.07474059833891329,-1.0422682374111845,0.503192999707805
172000100,0.17077172139242167,0.5031297393701261,-0.07578286657632448,-1.013143186572409,0.5031297393701261
173000100,0.1717688512449979,0.5029948577058445,-0.07679600976289688,-0.9833025527448662,0.5029948577058445
174000100,0.17276590388040552,0.5030465450894082,-0.07777931231564175,-0.9472724256007459,0.5030465450894082
175000100,0.1737628805942992,0.5030809835051184,-0.0787265847412425,-1.040710628944981,0.5030809835051184
176000100,0.17475978325696506,0.5030577171025399,-0.07976729537018747,-1.032205329948063,0.5030577171025399
177000100,0.17575660353279765,0.503254508310944,-0.08079950070013552,-1.0033566937702074,0.503254508310944
178000100,0.1767533410286748,0.5030370130759038,-0.08180285739390572,-1.1138294071291712,0.5030370130759038
179000100,0.1777499970403093,0.5028304753282915,-0.0829166868010349,-0.906301498638237,0.5028304753282915
180000100,0.17874656142088538,0.5026440568675861,-0.08382298829967313,-0.9114174499045278,0.5026440568675861
181000100,0.1797430503307532,0.5025692913646027,-0.08473440574957766,-0.921154520842212,0.5025692913646027
182000100,0.18073946251844883,0.5025325076777807,-0.08565556027041987,-0.9768817256264248,0.5025325076777807
183000100,0.18173579632330336,0.5024562238399228,-0.08663244199604629,-0.9958493195842113,0.5024562238399228
184000100,0.1827320460797018,0.502298691811684,-0.0876282913156305,-0.9759969220129692,0.502298691811684
