time_ns,x,y,theta,omega,lateral_error
100,0.0,0.0,0.0,0.0,0.0
1000100,0.0,0.5,0.1,0.0,0.5
2000100,0.000995004165278026,0.5000998334166469,0.09999999999999999,-3.0,0.5000998086658144
3000100,0.001990008330556052,0.5001996668332938,0.09699999999999999,-1.0502039602196866,0.5001995678299638
4000100,0.0029853075181193824,0.5002965147926722,0.09594979603978031,-1.0504287476722738,0.5002962919911474
5000100,0.0039807078669026955,0.5003923174316863,0.09489936729210803,-1.0491547241409787,0.5003919212808053
6000100,0.004976208300351028,0.5004870744208966,0.09385021256796704,-1.048848586149535,0.5004864553546619
7000100,0.005971807600637625,0.500580786924165,0.0928013639818175,-1.0485400950420918,0.5005798953619951
8000100,0.006967504643511698,0.5006734551431606,0.0917528238867754,-1.0482299997846614,0.5006722414900999
9000100,0.007963298305358418,0.5007650792831342,0.09070459388699074,-1.04791781965081,0.5007634939300729
10000100,0.008959187463277691,0.5008556595521714,0.08965667606733992,-1.0476035568142306,0.5008536528760696
11000100,0.00995517099504892,0.50094519616167,0.08860907251052569,-1.0472872130833835,0.500942718525778
12000100,0.010951247779140994,0.5010336893263371,0.08756178529744231,-1.0469687905104577,0.5010306910804153
13000100,0.011947416694722237,0.5011211392641854,0.08651481650693185,-1.0466482911533332,0.5011175707447251
14000100,0.012943676621670347,0.5012075461965309,0.08546816821577852,-1.0463257170752422,0.501203357726981
15000100,0.013940026440582329,0.5012929103479884,0.08442184249870326,-1.0460010703486078,0.5012880522389693
16000100,0.014936465032784401,0.5013772319464692,0.08337584142835465,-1.045674353044017,0.5013716544959997
17000100,0.015932991280341886,0.5014605112231771,0.08233016707531064,-1.0453455672445653,0.5014541647168913
18000100,0.016929604066069078,0.5015427484126056,0.08128482150806608,-1.045014715033395,0.5015355831239765
19000100,0.017926302273539103,0.5016239437525337,0.08023980679303269,-1.0446817985026957,0.5016159099430902
20000100,0.018923084787093744,0.5017040974840232,0.07919512499452999,-1.0443468197461887,0.5016951454035739
21000100,0.01991995049185326,0.5017832098514149,0.0781507781747838,-1.044009780866629,0.5017732897382644
22000100,0.020916898273726177,0.501861281102325,0.07710676839391717,-1.0436706839684584,0.5018503431834983
23000100,0.021913927019419077,0.5019383114876417,0.07606309770994871,-1.0433295311649164,0.5019263059791041
24000100,0.022911035616446328,0.5020143012615218,0.0750197681787838,-1.0429863245726985,0.5020011783683923
25000100,0.023908222953139845,0.5020892506813868,0.07397678185421108,-1.04264106631027,0.5020749605981616
26000100,0.024905487918658792,0.5021631600079193,0.07293414078790081,-1.0422937585064287,0.5021476529186959
27000100,0.025902829402999282,0.5022360295050597,0.07189184702939438,-1.0419444032953018,0.50221925558375
28000100,0.02690024629700406,0.5023078594400023,0.07084990262609908,-1.0415930028108786,0.5022897688505492
29000100,0.02789773749237215,0.5023786500831915,0.0698083096232882,-1.0412395591938925,0.5023591929797964
30000100,0.028895301881668493,0.5024484017083182,0.0687670700640943,-1.0408840745956673,0.5024275282356541
31000100,0.029892938358333575,0.5025171145923158,0.06772618598949863,-1.0405265511654793,0.5024947748857477
32000100,0.030890645816693003,0.5025847890153572,0.06668565943833316,-1.040166991061111,0.5025609332011549
33000100,0.03188842315196709,0.5026514252608497,0.06564549244727204,-1.0398053964420595,0.5026260034564157
34000100,0.03288626926028042,0.5027170236154324,0.06460568705082997,-1.039441769479714,0.5026899859295111
35000100,0.03388418303867135,0.5027815843689714,0.06356624528135024,-1.0390761123417704,0.5027528809018695
36000100,0.03488216338510157,0.5028451078145566,0.06252716916900847,-1.038708427206124,0.5028146886583635
37000100,0.035880209198465546,0.5029075942484974,0.061488460741802344,-1.0383387162557538,0.5028754094872981
38000100,0.03687831937860002,0.5029690439703188,0.060450122025546595,-1.037966981674871,0.5029350436804144
39000100,0.037876492826293455,0.5030294572827574,0.05941215504387173,-1.0375932256563085,0.502993591532878
40000100,0.03887472844329546,0.5030888344917573,0.05837456181821542,-1.037217450394061,0.5030510533432827
41000100,0.03987302513232619,0.5031471759064666,0.057337344367821355,-1.036839658090729,0.5031074294136425
42000100,0.04087138179708574,0.5032044818392326,0.05630050470973062,-1.036459850951955,0.5031627200493806
43000100,0.041869797342263516,0.5032607526055981,0.055264044858778665,-1.0360780311845663,0.5032169255593428
44000100,0.04286827067354756,0.5033159885242974,0.0542279668275941,-1.0356942010091514,0.5032700462557657
45000100,0.043866800697633865,0.5033701899172518,0.05319227262658494,-1.0353083626369015,0.503322082454307
46000100,0.04486538632223571,0.5034233571095657,0.052156964263948044,-1.0349205183014805,0.5033730344740102
47000100,0.045864026456092895,0.5034754904295223,0.051122043745646564,-1.0345306702252586,0.5034229026373179
48000100,0.04686272000898102,0.5035265902085796,0.05008751307542131,-1.034138820644432,0.503471687270057
49000100,0.047861465891720696,0.5035766567813657,0.04905337425477688,-1.0337449717942806,0.5035193887014412
50000100,0.04886026301618678,0.5036256904856748,0.0480196292829826,-1.033349125918502,0.5035660072640709
51000100,0.049859110295317546,0.5036736916624632,0.046986280157064096,-1.0329512852672107,0.5036115432939176
52000100,0.05085800664312384,0.5037206606558444,0.045953328871796886,-1.0325514520897485,0.5036559971303165
53000100,0.05185695097469825,0.5037665978130851,0.04492077741970713,-1.0321496286383878,0.5036993691159833
54000100,0.0528559422062242,0.5038115034846007,0.043888627791068745,-1.0317458171805782,0.503741659596985
55000100,0.05385497925498506,0.503855378023951,0.042856881973888164,-1.0313400199759628,0.5037828689227495
56000100,0.0548540610393732,0.5038982217878357,0.0418255419539122,-1.030932239295771,0.5038229974460543
57000100,0.05585318647889907,0.50394003513609,0.04079460971461643,-1.0305224774123047,0.5038620455230326
58000100,0.056852354494200216,0.50398081843168,0.039764087237204135,-1.0301107366075548,0.5039000135131547
59000100,0.05785156400705026,0.5040205720406983,0.03873397650059658,-1.0296970191610626,0.5039369017792306
60000100,0.05885081394036791,0.5040592963323595,0.03770427948143552,-1.029281327360251,0.5039727106873945
61000100,0.059850103218225925,0.5040969916789955,0.036674998154075274,-1.0288636634916788,0.5040074406071291
62000100,0.06084943076586,0.5041336584560512,0.0356461344905836,-1.0284440298605735,0.5040410919112219
63000100,0.06184879550967774,0.5041692970420796,0.03461769046072302,-1.0280224287570487,0.5040736649757923
64000100,0.06284819637726749,0.5042039078187374,0.033589668031965975,-1.0275988624914647,0.5041051601802623
65000100,0.06384763229740724,0.5042374911707801,0.0325620691694745,-1.0271733333662247,0.5041355779073731
66000100,0.06484710220007342,0.5042700474860575,0.03153489583610828,-1.0267458436986252,0.5041649185431625
67000100,0.06584660501644977,0.5043015771555092,0.030508149992409656,-1.0263163958013806,0.5041931824769713
68000100,0.0668461396789361,0.5043320805731591,0.029481833596608276,-1.0258849919969593,0.5042203701014275
69000100,0.06784570512115705,0.5043615581361119,0.028455948604611318,-1.02545163460656,0.5042464818124631
70000100,0.06884530027797084,0.5043900102445472,0.027430496970004752,-1.0250163259665233,0.5042715180092773
71000100,0.06984492408547799,0.5044174373017153,0.026405480644038224,-1.0245790684012224,0.5042954790943565
72000100,0.07084457548103003,0.504443839713932,0.025380901575637,-1.0241398642518045,0.5043183654734588
73000100,0.07184425340323813,0.5044692178905742,0.024356761711385195,-1.0236987158581174,0.5043401775556128
74000100,0.0728439567919818,0.5044935722440748,0.02333306299552708,-1.0232556255660366,0.5043609157531023
75000100,0.07384368458841745,0.5045169031899176,0.022309807369961042,-1.0228105957203275,0.5043805804814822
76000100,0.07484343573498703,0.5045392111466328,0.021286996774240716,-1.0223636286803341,0.5043991721595454
77000100,0.07584320917542658,0.5045604965357919,0.02026463314556038,-1.0219147267953756,0.5044166912093397
78000100,0.0768430038547748,0.5045807597820026,0.019242718418765004,-1.0214638924295936,0.5044331380561619
79000100,0.07784281871938153,0.504600001312904,0.018221254526335412,-1.0210111279509506,0.5044485131285321
80000100,0.07884265271691629,0.5046182215591614,0.01720024339838446,-1.0205564357210763,0.50446281685821
81000100,0.0798425047963767,0.5046354209544616,0.016179686962663385,-1.020099818115949,0.5044760496801791
82000100,0.08084237390809698,0.5046515999355076,0.015159587144547435,-1.0196412775104329,0.5044882120326416
83000100,0.08184225900375636,0.5046667589420135,0.014139945867037002,-1.0191808162832652,0.504499304357017
84000100,0.08284215903638742,0.5046808984166997,0.013120765050753738,-1.0187184368188837,0.5045093270979368
85000100,0.08384207296038454,0.5046940188052873,0.012102046613934854,-1.0182541415056978,0.5045182807032327
86000100,0.08484199973151219,0.5047061205564933,0.011083792472429157,-1.0177879327323438,0.5045261656239379
87000100,0.08584193830691324,0.5047172041220257,0.010066004539696811,-1.017319812895017,0.5045329823142758
88000100,0.08684188764511731,0.5047272699565776,0.009048684726801794,-1.0168497843902318,0.5045387312316608
89000100,0.08784184670604901,0.5047363185178224,0.008031834942411562,-1.016377849621708,0.5045434128366904
90000100,0.08884181445103614,0.504744350266409,0.007015457092789854,-1.0159040109953026,0.5045470275931289
91000100,0.08984178984281796,0.5047513656659557,0.005999553081794552,-1.0154282709154265,0.5045495759679237
92000100,0.09084177184555335,0.5047573651830456,0.0049841248108791255,-1.0149506318007855,0.5045510584311822
93000100,0.091841759424829,0.504762349287221,0.00396917417907834,-1.0144710960649612,0.5045514754561699
94000100,0.09284175154766751,0.5047663184509781,0.0029547030830133787,-1.0139896661270666,0.5045508275193087
95000100,0.09384174718253553,0.5047692731497618,0.001940713416886312,-1.0135063444116874,0.5045491151001648
96000100,0.09484174529935184,0.5047712138619604,0.0009272070724746246,-1.0130211333435273,0.5045463386814535
97000100,0.0958417448694954,0.5047721410689001,-8.581406086890261e-05,-1.0125340353563024,0.5045424987490201
98000100,0.09684174486581337,0.5047720552548394,-0.001098348096225205,-1.0120450528802665,0.5045375957918412
99000100,0.09784174426262916,0.5047709569069639,-0.0021103931491054714,-1.0115541883527066,0.5045316303020265
100000100,0.09884174203575037,0.5047688465153813,-0.0031219473374581776,-1.011061444218225,0.5045246027747888
101000100,0.09984173716247674,0.5047657245731153,-0.004133008781676403,-1.0105668229125244,0.5045165137084738
102000100,0.1008417286216081,0.5047615915761001,-0.005143575604588928,-1.0100703268926117,0.504507363604519
103000100,0.10184171539345227,0.5047564480231755,-0.0061536459314815405,-1.0095719586011325,0.5044971529674697
104000100,0.10284169645983289,0.504750294416081,-0.007163217890082673,-1.0090717204951032,0.5044858823049664
105000100,0.10384167080409733,0.5047431312594503,-0.008172289610577777,-1.0085696150313423,0.5044735521277429
106000100,0.10484163741112444,0.5047349590608056,-0.00918085922560912,-1.0080656446720178,0.5044601629496063
107000100,0.1058415952673324,0.5047257783305524,-0.010188924870281137,-1.0075598118754476,0.5044457152874527
108000100,0.10684154336068645,0.5047155895819737,-0.011196484682156584,-1.007052119114229,0.5044302096612372
109000100,0.10784148068070663,0.5047043933312243,-0.012203536801270811,-1.0065425688517524,0.5044136465939961
110000100,0.10884140621847553,0.5046921900973254,-0.013210079370122564,-1.0060311635691694,0.5043960266118135
111000100,0.1098413189666459,0.5046789804021586,-0.014216110533691734,-1.0055179057366823,0.5043773502438292
112000100,0.11084121791944834,0.5046647647704608,-0.015221628439428416,-1.005002797834932,0.5043576180222372
113000100,0.11184110207269898,0.5046495437298181,-0.01622663123726335,-1.0044858423496663,0.5043368304822583
114000100,0.112840970423807,0.5046333178106598,-0.017231117079613015,-1.0039670417593067,0.5043149881621628
115000100,0.11384082197178225,0.5046160875462533,-0.01823508412137232,-1.0034463985596407,0.5042920916032401
116000100,0.11484065571724275,0.5045978534726984,-0.019238530519931962,-1.0029239152373375,0.5042681413498072
117000100,0.1158404706624223,0.5045786161289206,-0.0202414544351693,-1.0023995942895623,0.5042431379491957
118000100,0.11684026581117786,0.5045583760566668,-0.021243854029458865,-1.0018734382127907,0.5042170819517533
119000100,0.11784004016899709,0.5045371338004978,-0.022245727467671655,-1.0013454495106413,0.5041899739108233
120000100,0.11883979274300575,0.5045148899077841,-0.023247072917182296,-1.0008156306823983,0.5041618143827468
121000100,0.11983952254197512,0.504491644928699,-0.024247888547864697,-1.000283984234396,0.5041326039268593
122000100,0.12083922857632937,0.5044673994162131,-0.025248172532099093,-0.9997505126775708,0.504102343105486
123000100,0.12183890985815292,0.5044421539260885,-0.026247923044776664,-0.9992152185261736,0.5040710324839243
124000100,0.12283856540119775,0.5044159090168728,-0.027247138263302835,-0.9986781042921311,0.5040386726304457
125000100,0.12383819422089072,0.5043886652498933,-0.02824581636759496,-0.9981391724939843,0.5040052641162859
126000100,0.12483779533434082,0.504360423189251,-0.029243955540088944,-0.9975984256514863,0.5039708075156427
127000100,0.1258373677603464,0.5043311834018147,-0.03024155396574043,-0.9970558662892617,0.5039353034056702
128000100,0.1268369105194024,0.504300946457215,-0.031238609832029692,-0.9965114969349631,0.5038987523664615
129000100,0.12783642263370754,0.5042697129278385,-0.03223512132896465,-0.9959653201137417,0.5038611549810544
130000100,0.1288359031271714,0.5042374833888217,-0.033231086649078395,-0.995417338359194,0.5038225118354211
131000100,0.12983535102542165,0.5042042584180447,-0.03422650398743759,-0.9948675542060146,0.5037828235184624
132000100,0.13083476535581112,0.504170038596126,-0.035221371541643606,-0.9943159701917057,0.5037420906219982
133000100,0.13183414514742484,0.5041348245064154,-0.036215687511835314,-0.9937625888551147,0.5037003137407579
134000100,0.13283348943108705,0.504098616734989,-0.037209450100690426,-0.993207412735972,0.503657493472385
135000100,0.1338327972393683,0.5040614158706423,-0.0382026575134264,-0.9926504443822826,0.503613630417424
136000100,0.13483206760659236,0.5040232225048846,-0.039195307957808685,-0.9920916863413627,0.5035687251793106
137000100,0.1358312995688432,0.5039840372319327,-0.04018739964415005,-0.9915311411614318,0.5035227783643764
138000100,0.13683049216397197,0.503943860648705,-0.04117893078531149,-0.9909688113990034,0.5034757905818179
139000100,0.13782964443160378,0.503902693354815,-0.0421698995967105,-0.9904046996007838,0.5034277624437258
140000100,0.13882875541314466,0.5038605359525654,-0.04316030429631128,-0.9898388083340386,0.5033786945650505
141000100,0.13982782415178838,0.5038173890469423,-0.044150143104645316,-0.9892711401545513,0.5033285875635961
142000100,0.14082684969252324,0.5037732532456082,-0.04513941424479987,-0.9887016976208765,0.5032774420600318
143000100,0.1418258310821389,0.5037281291588964,-0.04612811594242075,-0.9881304833029672,0.5032252586778749
144000100,0.14282476736923305,0.5036820173998049,-0.04711624642572372,-0.9875574997682643,0.5031720380434817
145000100,0.14382365760421825,0.5036349185839897,-0.04810380392549199,-0.9869827495850645,0.5031177807860368
146000100,0.14482250083932852,0.5035868333297588,-0.049090786675077054,-0.9864062353224432,0.5030624875375618
147000100,0.14582129612862604,0.5035377622580662,-0.0500771929103995,-0.9858279595592101,0.5030061589328981
148000100,0.14682004252800782,0.5034877059925051,-0.05106302086995871,-0.9852479248714399,0.5029487956096972
149000100,0.14781873909521226,0.5034366651593023,-0.05204826879483015,-0.984666133835951,0.5028903982084214
150000100,0.1488173848898258,0.5033846403873112,-0.0530329349286661,-0.9840825890358027,0.5028309673723306
151000100,0.14981597897328933,0.5033316323080061,-0.0540170175177019,-0.9834972930528298,0.5027705037474828
152000100,0.1508145204089049,0.5032776415554757,-0.055000514810754735,-0.9829102484750287,0.5027090079827176
153000100,0.15181300826184205,0.5032226687664163,-0.05598342505922976,-0.9823214578875852,0.5026464807296633
154000100,0.15281144159914437,0.5031667145801263,-0.05696574651711735,-0.9817309238850471,0.5025829226427104
155000100,0.15380981948973585,0.5031097796384991,-0.05794747744100239,-0.981138649054063,0.5025183343790254
156000100,0.1548081410044274,0.5030518645860174,-0.05892861609005645,-0.9805446359940599,0.5024527165985309
157000100,0.15580640521592312,0.502992970069746,-0.059909160726050514,-0.9799488872999957,0.5023860699638953
158000100,0.15680461119882666,0.5029330967393261,-0.06088910961335051,-0.9793514055672241,0.5023183951405447
159000100,0.1578027580296476,0.5028722452469687,-0.06186846101891774,-0.9787521934024523,0.5022496927966345
160000100,0.15880084478680767,0.5028104162474482,-0.06284721321232019,-0.9781512534041483,0.5021799636030612
161000100,0.159798870550647,0.5027476103980955,-0.06382536446572434,-0.9775485881818233,0.5021092082334309
162000100,0.16079683440343043,0.5026838283587923,-0.06480291305390616,-0.9769442003348774,0.5020374273640814
163000100,0.1617947354293536,0.5026190707919643,-0.06577985725424104,-0.9763380924793437,0.501964621674058
164000100,0.1627925727145492,0.5025533383625745,-0.06675619534672038,-0.9757302672244694,0.5018907918451031
165000100,0.16379034534709305,0.5024866317381171,-0.06773192561394485,-0.9751207271800253,0.501815938561661
166000100,0.16478805241701028,0.5024189515886108,-0.06870704634112487,-0.974509474963362,0.5017400625108672
167000100,0.1657856930162813,0.5023502985865924,-0.06968155581608823,-0.9738965131922315,0.5016631643825356
168000100,0.16678326623884795,0.50228067340711,-0.07065545232928046,-0.9732818444830376,0.5015852448691579
169000100,0.16778077118061951,0.502210076727717,-0.07162873417376349,-0.9726654714577767,0.5015063046658913
170000100,0.1687782069394786,0.5021385092284649,-0.07260139964522126,-0.972047396737239,0.501426344470558
171000100,0.16977557261528722,0.5020659715918974,-0.07357344704195849,-0.9714276229476708,0.5013453649836286
172000100,0.1707728673098927,0.5019924645030432,-0.07454487466490618,-0.9708061527122467,0.5012633669082295
173000100,0.17177009012713346,0.5019179886494103,-0.07551568081761843,-0.9701829886632987,0.5011803509501187
174000100,0.1727672401728451,0.5018425447209782,-0.07648586380628174,-0.9695581334263355,0.5010963178176897
175000100,0.17376431655486604,0.5017661334101924,-0.07745542193970807,-0.9689315896341499,0.5010112682219614
176000100,0.17476131838304346,0.5016887554119571,-0.07842435352934223,-0.9683033599198614,0.5009252028765716
177000100,0.17575824476923899,0.501610411423629,-0.0793926568892621,-0.9676734469186232,0.5008381224977632
178000100,0.1767550948273345,0.5015311021450106,-0.08036033033618073,-0.9670418532639311,0.5007500278043988
179000100,0.17775186767323786,0.5014508282783433,-0.08132737218944466,-0.9664085816020316,0.5006609195179154
180000100,0.17874856242488857,0.5013695905283009,-0.0822937807710467,-0.9657736345614647,0.500570798362356
181000100,0.1797451782022634,0.5012873896019829,-0.08325955440560816,-0.9651370147922096,0.5004796650643353
182000100,0.18074171412738216,0.5012042262089083,-0.08422469142040037,-0.9644987249320309,0.5003875203530541
183000100,0.18173816932431314,0.5011201010610079,-0.08518919014533238,-0.9638587676312658,0.5002943649602712
184000100,0.18273454291917873,0.5010350148726187,-0.08615304891296365,-0.9632171455313401,0.5002001996203075
